,0
2020-01-16 00:00:00,1.0108055468939976
2020-01-19 08:00:00,1.0156916925466863
2020-01-19 08:00:00,1.0103034942611833
2020-01-19 08:00:00,1.00521415577599
2020-01-30 00:00:00,0.9998594628483763
2020-01-31 12:00:00,0.9945477693260396
2020-01-31 12:00:00,0.989373771907308
2020-02-02 04:00:00,0.9832232968136626
2020-02-04 08:00:00,0.9782157673839545
2020-02-06 12:00:00,0.9774484335019299
2020-02-09 12:00:00,0.972480257342391
2020-02-10 04:00:00,0.9721022395221666
2020-02-13 08:00:00,0.9724412458719643
2020-02-15 12:00:00,0.9653872275678042
2020-02-15 16:00:00,1.006983132916936
2020-02-16 16:00:00,1.001996388854543
2020-02-29 08:00:00,1.0063136959467949
2020-03-07 16:00:00,1.0013291544603173
2020-03-12 12:00:00,1.018414428010643
2020-03-13 00:00:00,1.0158730297707244
2020-03-13 04:00:00,1.0580474991019915
2020-03-13 08:00:00,1.0891537516831789
2020-04-19 04:00:00,1.0837437425313161
2020-04-30 08:00:00,1.1143349860846194
2020-04-30 08:00:00,1.1183308286756337
2020-04-30 08:00:00,1.1182832298577778
2020-05-10 00:00:00,1.1122265230834663
2020-05-20 12:00:00,1.1066990003135428
2020-05-31 12:00:00,1.1064211371536026
2020-05-31 12:00:00,1.1009328924465003
2020-05-31 20:00:00,1.120769308343433
2020-06-02 12:00:00,1.115003157110326
2020-06-02 12:00:00,1.1093069921882013
2020-06-02 12:00:00,1.1037210493558232
2020-06-07 12:00:00,1.1009350715936776
2020-06-24 04:00:00,1.0954206866501646
2020-06-24 12:00:00,1.1026842420028213
2020-06-27 20:00:00,1.097222595118364
2020-06-28 08:00:00,1.0917692734411415
2020-07-02 16:00:00,1.0867153957030726
2020-07-05 12:00:00,1.0819634955023594
2020-07-08 12:00:00,1.1031270450279755
2020-07-09 12:00:00,1.106368864383149
2020-07-09 12:00:00,1.1008476482215444
2020-07-13 12:00:00,1.1073534167470578
2020-07-15 08:00:00,1.1009623412761556
2020-07-26 12:00:00,1.1203229578917775
2020-07-27 12:00:00,1.1149437275723402
2020-07-28 08:00:00,1.114195199248693
2020-08-01 12:00:00,1.1196405589954042
2020-08-02 04:00:00,1.204703828205223
2020-08-02 04:00:00,1.198925467293401
2020-08-02 04:00:00,1.1988241967907654
2020-08-02 04:00:00,1.1928868412503237
2020-08-07 16:00:00,1.1900289353064115
2020-08-08 20:00:00,1.2069818079441703
2020-08-17 20:00:00,1.2111779867523356
2020-08-19 04:00:00,1.2072884057537556
2020-09-02 08:00:00,1.2171826988767736
2020-09-04 08:00:00,1.2141532360101925
2020-09-04 20:00:00,1.2137704010363224
2020-09-08 04:00:00,1.2107513552135394
2020-09-15 00:00:00,1.2114230686879395
2020-09-24 08:00:00,1.205316657431321
2020-09-24 12:00:00,1.1993095597893728
2020-09-24 20:00:00,1.1933590959821385
2020-10-01 12:00:00,1.1884933169653644
2020-10-02 12:00:00,1.1825737531966554
2020-10-07 16:00:00,1.1824931084079109
2020-10-13 12:00:00,1.1766122622115587
2020-10-13 12:00:00,1.1709294799182464
2020-10-16 04:00:00,1.165132902419816
2020-10-21 12:00:00,1.1593741892229439
2020-10-23 16:00:00,1.1532960183451968
2020-10-25 04:00:00,1.1819587210648579
2020-10-28 12:00:00,1.176065116793913
2020-10-31 16:00:00,1.1835763998146858
2020-11-01 12:00:00,1.1778240204352484
2020-11-03 04:00:00,1.172019751109087
2020-11-04 16:00:00,1.1661882734778497
2020-11-07 12:00:00,1.1663205956138327
2020-11-07 16:00:00,1.1676321055878818
2020-11-07 16:00:00,1.168670329752215
2020-11-14 08:00:00,1.1657403134265591
2020-11-18 04:00:00,1.1670013277911717
2020-11-18 12:00:00,1.1666553320738478
2020-11-22 00:00:00,1.1871465268024997
2020-11-22 00:00:00,1.1812167842297172
2020-11-22 04:00:00,1.181765823736439
2020-11-22 08:00:00,1.1786730001684498
2020-11-24 04:00:00,1.17282104829212
2020-11-24 08:00:00,1.1749093205750574
2020-11-24 08:00:00,1.180787959590603
2020-11-24 08:00:00,1.1778481195506805
2020-11-25 20:00:00,1.1745574721657612
2020-12-13 12:00:00,1.1786250860429157
2020-12-15 04:00:00,1.1728072204419215
2020-12-17 16:00:00,1.1667579550000156
2020-12-17 20:00:00,1.1661443200464536
2020-12-20 20:00:00,1.1719021066857427
2020-12-21 08:00:00,1.2064868421115886
2020-12-21 08:00:00,1.2088931167592747
2020-12-24 12:00:00,1.2188145518689617
2020-12-27 20:00:00,1.2224420683689894
2020-12-29 00:00:00,1.2193680445868187
2021-01-02 08:00:00,1.220342692762346
2021-01-02 20:00:00,1.2250401913279751
2021-01-02 20:00:00,1.2342772401621005
2021-01-03 12:00:00,1.2312111826152694
2021-01-04 08:00:00,1.2309656463308505
2021-01-07 16:00:00,1.236024969582827
2021-01-07 16:00:00,1.2329544348167414
2021-01-08 00:00:00,1.229656131187369
2021-01-08 00:00:00,1.2264035419311954
2021-01-10 20:00:00,1.2227724715114143
2021-01-11 16:00:00,1.2195296336060801
2021-01-16 20:00:00,1.2164363290273061
2021-01-29 04:00:00,1.2653301047291943
2021-02-06 00:00:00,1.2923725232065824
2021-02-06 00:00:00,1.3127898453736253
2021-02-07 12:00:00,1.340595276697005
2021-02-07 12:00:00,1.3334613816916443
2021-02-07 12:00:00,1.3302052642636575
2021-02-10 12:00:00,1.3290489266537318
2021-02-14 08:00:00,1.3365528408922194
2021-02-14 12:00:00,1.3322727797363367
2021-02-15 00:00:00,1.324479719243962
2021-02-19 16:00:00,1.34863943518152
2021-02-20 20:00:00,1.3412841264931343
2021-02-22 08:00:00,1.3439286638559769
2021-02-23 08:00:00,1.3372978488997762
2021-02-25 20:00:00,1.33393624400841
2021-03-09 00:00:00,1.3273019793369736
2021-03-10 00:00:00,1.3206997125224278
2021-03-10 00:00:00,1.3141095597863126
2021-03-15 04:00:00,1.3211359536042446
2021-03-18 16:00:00,1.3142295811608469
2021-03-21 08:00:00,1.3075428543622303
2021-03-24 16:00:00,1.3005855556420123
2021-03-31 00:00:00,1.300819940406111
2021-03-31 08:00:00,1.2940303650525562
2021-03-31 08:00:00,1.2871415358183964
2021-04-03 12:00:00,1.2804898313040012
2021-04-04 00:00:00,1.280453845862732
2021-04-05 04:00:00,1.2740044532136567
2021-04-06 12:00:00,1.289841745380996
2021-04-07 08:00:00,1.3018350130598018
2021-04-13 04:00:00,1.324418596115525
2021-04-14 12:00:00,1.3500455026084304
2021-04-14 16:00:00,1.3846010705777485
2021-04-16 04:00:00,1.402966013115117
2021-04-16 08:00:00,1.395487516074866
2021-04-16 16:00:00,1.3986711917030874
2021-04-18 00:00:00,1.3905931087767862
2021-04-22 20:00:00,1.387126766449295
2021-04-28 04:00:00,1.383596290942215
2021-05-02 00:00:00,1.3764520908810274
2021-05-02 00:00:00,1.3696015750538608
2021-05-04 00:00:00,1.385011919730003
2021-05-04 00:00:00,1.3780944383885316
2021-05-04 12:00:00,1.3712450902525473
2021-05-05 16:00:00,1.422519314415328
2021-05-06 16:00:00,1.415119077197227
2021-05-06 16:00:00,1.4078031290331707
2021-05-10 16:00:00,1.4007340132823534
2021-05-10 20:00:00,1.4073677080484923
2021-05-12 16:00:00,1.4002449978697982
2021-05-16 16:00:00,1.393236207484158
2021-05-19 16:00:00,1.403479191731019
2021-06-02 16:00:00,1.3964798515346213
2021-06-08 20:00:00,1.389524260884954
2021-06-08 20:00:00,1.3825619331454035
2021-06-09 04:00:00,1.375645195178509
2021-06-12 12:00:00,1.3688109653569445
2021-06-12 16:00:00,1.3619718973193464
2021-06-20 20:00:00,1.3626952187661345
2021-06-23 00:00:00,1.3753552109982286
2021-06-23 00:00:00,1.3838517584931664
2021-06-23 04:00:00,1.4084462339423436
2021-07-14 12:00:00,1.4014687880957455
2021-07-14 12:00:00,1.394479975535675
2021-07-14 12:00:00,1.3874814075497282
2021-07-17 16:00:00,1.380614796694966
2021-07-21 04:00:00,1.3886024817419524
2021-07-21 04:00:00,1.3888464697051843
2021-07-21 12:00:00,1.3970397392604104
2021-08-07 16:00:00,1.3899809313230571
2021-08-12 04:00:00,1.4065143680852163
2021-08-12 12:00:00,1.4096441989340764
2021-08-12 16:00:00,1.4125830142288769
2021-08-16 20:00:00,1.4121163132718957
2021-08-17 16:00:00,1.4139375327699308
2021-08-18 00:00:00,1.4064593542192496
2021-08-24 00:00:00,1.3992785228690878
2021-08-24 16:00:00,1.4035046359328374
2021-08-24 16:00:00,1.404468850561698
2021-08-31 16:00:00,1.431625286964153
2021-09-03 00:00:00,1.4242679591912666
2021-09-04 16:00:00,1.4168440697324134
2021-09-07 08:00:00,1.4314005650404114
2021-09-07 08:00:00,1.4307442467804519
2021-09-07 12:00:00,1.4529819720715633
2021-09-09 16:00:00,1.449347011250905
2021-09-26 08:00:00,1.4457416558237282
2021-10-05 16:00:00,1.438437864665244
2021-10-06 08:00:00,1.431266158216494
2021-10-10 16:00:00,1.4240862748230128
2021-10-12 20:00:00,1.4469386774086748
2021-10-13 04:00:00,1.439756414772049
2021-10-16 16:00:00,1.4325087830530188
2021-10-17 08:00:00,1.4396384636558792
2021-10-21 12:00:00,1.4323968712443373
2021-10-22 16:00:00,1.4252444412427585
2021-10-24 08:00:00,1.41772893648749
2021-10-24 08:00:00,1.4105390294839955
2021-10-25 16:00:00,1.403374504234351
2021-10-26 04:00:00,1.3963425250936643
2021-10-27 08:00:00,1.389523956386525
2021-10-27 08:00:00,1.3820435481061206
2021-10-28 08:00:00,1.3786005837091142
2021-11-09 12:00:00,1.381968751776562
2021-11-10 00:00:00,1.4099841058067548
2021-11-10 16:00:00,1.4029827963669566
2021-11-10 20:00:00,1.4016822203318027
2021-11-19 16:00:00,1.4032344640575136
2021-11-25 12:00:00,1.3964071658250934
2021-11-27 04:00:00,1.3894797348094041
2021-11-28 20:00:00,1.3860451840356247
2021-12-03 16:00:00,1.379075688514087
2021-12-04 16:00:00,1.3756417375300674
2021-12-07 00:00:00,1.3722139674105092
2021-12-14 08:00:00,1.3653764098057475
2021-12-15 08:00:00,1.3585801465252838
2021-12-15 16:00:00,1.3552038594694906
2021-12-30 08:00:00,1.3484870950672918
2022-01-01 00:00:00,1.3417898132276513
2022-01-01 04:00:00,1.3351255444571783
2022-01-01 16:00:00,1.328475760397183
2022-01-08 08:00:00,1.325193168649422
2022-01-08 20:00:00,1.3235448386817301
2022-01-11 08:00:00,1.325377360022457
2022-01-11 08:00:00,1.322076292108734
2022-01-11 16:00:00,1.3239055390496832
2022-01-11 16:00:00,1.3277093974964767
2022-01-11 16:00:00,1.3260680052526044
2022-01-12 08:00:00,1.3228972178907723
2022-01-22 12:00:00,1.3228750810688705
2022-01-23 00:00:00,1.321214424775471
2022-01-23 08:00:00,1.3340400631709328
2022-01-23 08:00:00,1.3339975635391517
2022-01-24 16:00:00,1.3339683862215255
2022-01-25 16:00:00,1.3469986699512715
2022-01-26 12:00:00,1.3484716653682012
2022-01-26 12:00:00,1.3510357646455777
2022-02-14 12:00:00,1.344300657816808
2022-02-14 12:00:00,1.337597443673324
2022-02-23 08:00:00,1.340653456257482
2022-02-23 08:00:00,1.352593891870624
2022-02-23 16:00:00,1.3560726943568668
2022-02-24 16:00:00,1.3526845214140968
2022-02-24 16:00:00,1.3492970357682992
2022-02-24 16:00:00,1.342429381656172
2022-02-24 20:00:00,1.3390424136782884
2022-02-24 20:00:00,1.3356351711646886
2022-03-07 12:00:00,1.332319538570933
2022-03-09 00:00:00,1.3289930120291409
2022-03-09 08:00:00,1.325679409419508
2022-03-28 20:00:00,1.3224054183659897
2022-03-31 12:00:00,1.3274471564931347
2022-03-31 12:00:00,1.3241807266730714
2022-03-31 16:00:00,1.3243640410955417
2022-04-06 08:00:00,1.322711819632342
2022-04-17 00:00:00,1.3195173570910932
2022-04-18 16:00:00,1.3162508044623153
2022-04-25 12:00:00,1.3129979847851294
2022-04-25 20:00:00,1.315433952074193
2022-04-25 20:00:00,1.312166933309543
2022-05-01 12:00:00,1.3144212786147074
2022-05-01 12:00:00,1.3111534819022697
2022-05-01 16:00:00,1.312436906891475
2022-05-01 16:00:00,1.3135374598434002
2022-05-04 16:00:00,1.3241350521531126
2022-05-10 04:00:00,1.3305143773999997
2022-05-10 04:00:00,1.3415717947092303
2022-05-10 04:00:00,1.3425667351603499
2022-05-10 12:00:00,1.350015809473706
2022-05-10 12:00:00,1.3555790960583658
2022-05-13 04:00:00,1.3561603945882403
2022-05-13 04:00:00,1.3569300790662642
2022-05-13 12:00:00,1.3568564425633933
2022-05-14 20:00:00,1.3743046051851036
2022-05-26 16:00:00,1.3674398609522904
2022-05-27 16:00:00,1.368977786045939
2022-05-30 00:00:00,1.361878978501218
2022-06-04 20:00:00,1.3584790527777784
2022-06-12 12:00:00,1.3550958748801982
2022-06-14 04:00:00,1.3550947441345296
2022-06-15 16:00:00,1.395960518181946
2022-06-15 16:00:00,1.392534329464123
2022-06-19 08:00:00,1.414750438396194
2022-06-19 08:00:00,1.4112526848597737
2022-06-30 16:00:00,1.4042134182621773
2022-07-01 00:00:00,1.3971305199144872
2022-07-04 20:00:00,1.3900426396032313
2022-07-13 08:00:00,1.3831105526716112
2022-07-15 08:00:00,1.376016403225417
2022-07-27 00:00:00,1.3691409489338209
2022-07-27 04:00:00,1.362301352951998
2022-07-27 12:00:00,1.3554590270524745
2022-08-09 08:00:00,1.3487126167529033
2022-08-09 12:00:00,1.3562862110995553
2022-08-09 12:00:00,1.355993776592536
2022-08-14 12:00:00,1.349254569081099
2022-08-14 16:00:00,1.3423974823999594
2022-08-15 04:00:00,1.3356524868383859
2022-08-17 12:00:00,1.3323163837784047
2022-08-21 08:00:00,1.328997594648287
2022-08-29 20:00:00,1.3301668173575318
2022-08-30 00:00:00,1.3268639722544775
2022-08-30 04:00:00,1.323491654361485
2022-09-07 20:00:00,1.3275267415144405
2022-09-12 00:00:00,1.324312563016636
2022-09-12 16:00:00,1.3210412340967055
2022-09-19 12:00:00,1.31776050041721
2022-09-19 20:00:00,1.3144363394607028
2022-09-22 08:00:00,1.312799514014705
2022-09-23 08:00:00,1.3127824146833846
2022-09-24 12:00:00,1.314488244569563
2022-10-10 20:00:00,1.3111638341237042
2022-10-11 12:00:00,1.3110211007674846
2022-10-13 12:00:00,1.3134259701171394
2022-10-13 12:00:00,1.310179760764784
2022-10-13 16:00:00,1.3124965172287613
2022-10-13 16:00:00,1.3166324564053395
2022-10-13 16:00:00,1.3143773194030692
2022-10-22 00:00:00,1.3110709292175329
2022-10-29 16:00:00,1.318155024219159
2022-11-02 08:00:00,1.3240878738352921
2022-11-06 20:00:00,1.3224233601860602
2022-11-06 20:00:00,1.3191020713997803
2022-11-07 04:00:00,1.3174931253165165
2022-11-08 08:00:00,1.3158304006388641
2022-11-10 12:00:00,1.3157882132539964
2022-11-10 12:00:00,1.3141237159848798
2022-11-22 12:00:00,1.3108691973353832
2022-11-22 12:00:00,1.3076202859921617
2022-11-22 20:00:00,1.3043583846882347
2022-11-23 00:00:00,1.3026355351273846
2022-11-23 08:00:00,1.2993782157304987
2022-11-26 20:00:00,1.296138186331206
2022-12-13 08:00:00,1.2929320652858796
2022-12-13 12:00:00,1.2897286373763168
2022-12-17 20:00:00,1.2909936404509637
2022-12-20 04:00:00,1.293513309233458
2022-12-20 04:00:00,1.2903345955598082
2022-12-20 20:00:00,1.2940893262702766
2022-12-29 20:00:00,1.3054902686985295
2022-12-31 08:00:00,1.3022974531208473
2022-12-31 08:00:00,1.2990419973646687
2022-12-31 12:00:00,1.3010027570246563
2023-01-02 04:00:00,1.2977791808523629
2023-01-12 12:00:00,1.294566276307454
2023-01-14 08:00:00,1.302174031072973
2023-01-14 08:00:00,1.3036578073998797
2023-01-22 00:00:00,1.3003992830159865
2023-01-22 20:00:00,1.2971210000245939
2023-01-24 08:00:00,1.293886828701765
2023-01-24 20:00:00,1.2922473550320481
2023-01-27 00:00:00,1.2923676222690585
2023-01-30 08:00:00,1.28915225865205
2023-02-01 04:00:00,1.285942017483401
2023-02-16 08:00:00,1.2827458451323117
2023-02-16 20:00:00,1.2795272883347963
2023-02-16 20:00:00,1.276353078274089
2023-02-19 16:00:00,1.273160276576563
2023-02-21 12:00:00,1.2699608326282226
2023-03-10 20:00:00,1.2667968333945858
2023-03-11 00:00:00,1.2711909497939735
2023-03-11 00:00:00,1.2680223465022893
2023-03-12 20:00:00,1.2646842371396105
2023-03-12 20:00:00,1.2615419012383176
2023-03-14 16:00:00,1.2599772087075376
2023-03-14 16:00:00,1.2584113763022668
2023-03-21 04:00:00,1.2568168019244106
2023-03-22 16:00:00,1.2561077999916086
2023-03-30 00:00:00,1.2576323750235705
2023-03-30 16:00:00,1.2586301546360237
2023-04-01 04:00:00,1.2555013044167562
2023-04-11 20:00:00,1.2524072575759284
2023-04-14 12:00:00,1.249331584118082
2023-04-14 16:00:00,1.2508891348981714
2023-04-17 08:00:00,1.2477274592907144
2023-04-18 00:00:00,1.2502626019953111
2023-04-19 08:00:00,1.2469839835376864
2023-04-19 08:00:00,1.243730427776423
2023-04-19 08:00:00,1.246630360786644
2023-05-10 12:00:00,1.2472674243975947
2023-05-10 12:00:00,1.2441625391244486
2023-05-22 12:00:00,1.2411044514211889
2023-05-27 20:00:00,1.2381200375118382
2023-06-05 12:00:00,1.2438471888914295
2023-06-05 16:00:00,1.2407798109450277
2023-06-06 12:00:00,1.2377124639343233
2023-06-10 12:00:00,1.2572198848164615
2023-06-10 16:00:00,1.2713536754646573
2023-06-10 20:00:00,1.2822191100132865
2023-06-13 08:00:00,1.2851082051508194
2023-06-16 16:00:00,1.2819076560703055
2023-06-18 12:00:00,1.280370638442413
2023-06-24 00:00:00,1.278782281507036
2023-07-13 20:00:00,1.2756353205627604
2023-07-14 04:00:00,1.2813502371830228
2023-07-14 16:00:00,1.2781538735641575
2023-07-14 16:00:00,1.2749755700564716
2023-07-26 16:00:00,1.273385435552666
2023-08-08 16:00:00,1.270367435471937
2023-08-18 00:00:00,1.2829588196723745
2023-08-18 00:00:00,1.2890946690535299
2023-08-18 08:00:00,1.2874893987861955
2023-08-29 12:00:00,1.2859147026596325
2023-09-03 16:00:00,1.282700063421633
2023-09-12 00:00:00,1.2842021832347006
2023-09-12 00:00:00,1.2810118459470148
2023-09-12 00:00:00,1.2778484548428233
2023-09-12 08:00:00,1.2746568426254856
2023-10-02 12:00:00,1.280735592182188
2023-10-10 00:00:00,1.2804698076298622
2023-10-13 20:00:00,1.2832473826834445
2023-10-14 20:00:00,1.2800327122604211
2023-10-16 04:00:00,1.2770031772087058
2023-10-23 12:00:00,1.3081485307860599
2023-10-24 00:00:00,1.3139238950101102
2023-10-26 12:00:00,1.312279693126142
2023-10-26 12:00:00,1.3106504239546775
2023-10-31 12:00:00,1.309012420881016
2023-10-31 12:00:00,1.3073904537310892
2023-11-01 20:00:00,1.366540528488872
2023-11-07 00:00:00,1.3779235388245266
2023-11-07 08:00:00,1.3905273679079848
2023-11-07 12:00:00,1.3906879723168317
2023-11-09 16:00:00,1.3871834351354297
2023-11-09 16:00:00,1.3941636949542382
2023-11-09 16:00:00,1.3906889540512766
2023-11-09 16:00:00,1.387240463522731
2023-11-09 16:00:00,1.3838055793877655
2023-11-11 00:00:00,1.380306463797487
2023-11-12 00:00:00,1.3841208283889435
2023-11-13 04:00:00,1.380647611037674
2023-11-13 20:00:00,1.377109398464728
2023-11-16 16:00:00,1.373648730093922
2023-11-19 00:00:00,1.3702020773661694
2023-12-04 08:00:00,1.3631931613351835
2023-12-04 08:00:00,1.3562525454789338
2023-12-04 08:00:00,1.3495403759767692
2023-12-04 12:00:00,1.3428553944352821
2023-12-06 20:00:00,1.3458630325826464
2023-12-09 16:00:00,1.417905905059432
2023-12-11 00:00:00,1.4563439654449966
2023-12-11 00:00:00,1.4527625522906635
2023-12-24 20:00:00,1.461118289447596
2023-12-24 20:00:00,1.453703929240287
2023-12-26 16:00:00,1.4762643173683863
2023-12-29 12:00:00,1.4765763967693868
2024-01-12 20:00:00,1.4728681897665028
2024-01-20 04:00:00,1.4656156027641603
2024-01-26 08:00:00,1.4585670824581887
2024-01-28 16:00:00,1.4513121300587617
2024-01-28 20:00:00,1.4440970987794026
2024-02-01 00:00:00,1.4368353512456198
2024-02-01 00:00:00,1.42952024865169
2024-02-06 20:00:00,1.4323252467959018
2024-02-12 04:00:00,1.428531369387819
2024-02-13 16:00:00,1.4461225782376788
2024-02-17 12:00:00,1.487153587033173
2024-02-17 12:00:00,1.505536711667228
2024-02-20 12:00:00,1.4977747083602706
2024-02-21 12:00:00,1.497079047833233
2024-02-28 16:00:00,1.507200712405616
2024-02-28 20:00:00,1.551244025648611
2024-02-29 16:00:00,1.5473201888675698
2024-02-29 20:00:00,1.5720790986279616
2024-02-29 20:00:00,1.5742052795557555
2024-03-03 04:00:00,1.570149733731609
2024-03-05 04:00:00,1.5736077413057357
2024-03-05 04:00:00,1.572920173306377
2024-03-05 16:00:00,1.5690260750368605
2024-03-12 16:00:00,1.5649630820202975
2024-03-14 16:00:00,1.5807352449549261
2024-03-15 00:00:00,1.5759542910547635
2024-03-16 16:00:00,1.5720231987391624
2024-03-19 00:00:00,1.5680724395091061
2024-03-27 12:00:00,1.5599515415479661
2024-03-30 16:00:00,1.5709615619046087
2024-04-01 04:00:00,1.5631749577561975
2024-04-09 04:00:00,1.5552768961105614
2024-04-09 08:00:00,1.5474489842100239
2024-04-13 08:00:00,1.543608455368777
2024-04-14 20:00:00,1.5456587088475806
2024-05-01 16:00:00,1.5380451468913956
2024-05-01 16:00:00,1.5303958890809923
2024-05-02 16:00:00,1.5315548003828816
2024-05-13 04:00:00,1.5239958770025832
2024-05-23 12:00:00,1.516261663336226
2024-05-23 12:00:00,1.508434663929679
2024-05-23 12:00:00,1.5009567739959395
2024-06-06 20:00:00,1.493444568603741
2024-06-07 16:00:00,1.5121263083089793
2024-06-12 12:00:00,1.5046735471964838
2024-06-16 20:00:00,1.4973207923894225
2024-06-17 16:00:00,1.4899148999444733
2024-06-19 00:00:00,1.5013106829988603
2024-06-19 04:00:00,1.497582762746789
2024-06-24 20:00:00,1.5025549333471908
2024-06-25 00:00:00,1.52159155662161
2024-07-05 08:00:00,1.5483866383648406
2024-07-05 12:00:00,1.5719512054901743
2024-07-06 12:00:00,1.5918886007499369
2024-07-23 16:00:00,1.5838685402777155
2024-07-26 00:00:00,1.579963240071436
2024-07-26 04:00:00,1.5720947121449074
2024-07-27 20:00:00,1.564347238785302
2024-08-01 20:00:00,1.556587718413175
2024-08-01 20:00:00,1.5488663278139319
2024-08-05 12:00:00,1.5693263358805305
2024-08-05 12:00:00,1.58450061712412
2024-08-05 16:00:00,1.6162082144194339
2024-08-05 16:00:00,1.6337703430043957
2024-08-28 08:00:00,1.6256695631517812
2024-09-02 20:00:00,1.6175839277382273
2024-09-04 12:00:00,1.609586997213874
2024-09-04 16:00:00,1.6126749682519306
2024-09-08 08:00:00,1.616892067146298
2024-09-09 12:00:00,1.612850252903694
2024-09-09 16:00:00,1.6048745349524525
2024-09-23 12:00:00,1.5969600707303357
2024-09-25 16:00:00,1.6009217125950839
2024-09-28 04:00:00,1.5929186245695632
2024-09-29 12:00:00,1.5889456727506537
2024-09-29 20:00:00,1.5810764903687735
2024-09-30 00:00:00,1.5730759863699417
2024-10-06 12:00:00,1.5654154161660616
2024-10-21 12:00:00,1.5748877114214999
2024-10-21 12:00:00,1.567118349242705
2024-10-23 08:00:00,1.5696702085561616
2024-10-25 16:00:00,1.561772196337707
2024-10-26 04:00:00,1.5540457106017374
2024-10-27 08:00:00,1.5550056201820073
2024-10-27 20:00:00,1.5473873082183727
2024-10-28 12:00:00,1.539730435538367
2024-10-31 12:00:00,1.5406685973930248
2024-10-31 12:00:00,1.5330155349332566
2024-10-31 16:00:00,1.5252362100321928
2024-11-05 12:00:00,1.5177172708497886
2024-11-06 04:00:00,1.5139389963558947
2024-11-10 20:00:00,1.524735216686198
2024-11-12 12:00:00,1.5309186898477716
2024-11-13 00:00:00,1.5414953328643226
2024-11-13 04:00:00,1.5509039915742804
2024-11-14 20:00:00,1.5676882925798872
2024-11-17 00:00:00,1.5850538372620613
2024-11-24 08:00:00,1.5849248496758321
2024-11-24 12:00:00,1.603260081868163
2024-11-25 16:00:00,1.5948981005673906
2024-11-26 08:00:00,1.5951256188135996
2024-12-02 08:00:00,1.586930079735889
2024-12-03 12:00:00,1.6073561410343464
2024-12-03 12:00:00,1.6213366212817313
2024-12-04 16:00:00,1.6172833880691397
2024-12-05 00:00:00,1.6132195142127759
2024-12-05 20:00:00,1.6051520962458683
2024-12-13 12:00:00,1.601149490036491
2025-01-07 12:00:00,1.5929057316101862
2025-01-07 12:00:00,1.5990847787664841
2025-01-07 12:00:00,1.6123700881683236
2025-01-10 04:00:00,1.6043620169529125
2025-01-13 20:00:00,1.5964010919307774
2025-01-18 04:00:00,1.5961646869075699
2025-01-19 08:00:00,1.5999634867288992
2025-01-19 08:00:00,1.5918979340544372
2025-01-19 20:00:00,1.587933772362515
2025-01-19 20:00:00,1.5800968976530538
2025-02-03 04:00:00,1.6006899660693565
2025-02-03 04:00:00,1.6301923155388123
2025-02-03 04:00:00,1.6395833953797805
2025-02-20 12:00:00,1.643765389518338
2025-02-28 12:00:00,1.6548017361401897
2025-02-28 16:00:00,1.6838074996665418
2025-03-01 00:00:00,1.7057816039633225
2025-03-10 08:00:00,1.7015519238767383
2025-03-11 04:00:00,1.697323434966154
2025-03-12 12:00:00,1.6930910832902857
2025-03-12 12:00:00,1.6888596212552693
2025-03-14 08:00:00,1.6846079711404396
2025-03-19 08:00:00,1.6804150251416732
2025-03-31 12:00:00,1.6722028209327702
2025-04-01 08:00:00,1.6754585894254328
2025-04-01 12:00:00,1.6671286270340702
2025-04-04 12:00:00,1.658720426069548
2025-04-04 16:00:00,1.6503516474618085
2025-04-07 08:00:00,1.6567983749397057
2025-04-07 08:00:00,1.6526736417804875
2025-04-07 12:00:00,1.6640386018600042
2025-04-07 12:00:00,1.6662187782318574
2025-04-28 00:00:00,1.658055274206669
2025-05-06 20:00:00,1.649844432047571
2025-05-06 20:00:00,1.641637045607972
2025-05-10 08:00:00,1.6335383917462127
2025-05-11 00:00:00,1.625447195549513
2025-05-12 12:00:00,1.6173736932375693
2025-05-12 16:00:00,1.6298373472627792
2025-05-12 16:00:00,1.6217489007662957
2025-05-13 00:00:00,1.6246439361380687
2025-05-14 12:00:00,1.6165458673314246
2025-05-14 16:00:00,1.6084380393150381
2025-05-21 16:00:00,1.6005094319984519
2025-05-23 04:00:00,1.5925733943880305
2025-05-23 08:00:00,1.5846798414329755
2025-05-23 08:00:00,1.5767130013508446
2025-06-06 08:00:00,1.5688421801367347
2025-06-11 20:00:00,1.5649322240234018
2025-06-12 08:00:00,1.5610037006783062
2025-06-23 12:00:00,1.567791624337529
2025-06-23 12:00:00,1.5777377867509197
2025-06-23 12:00:00,1.5825957749658819
2025-06-23 12:00:00,1.5847058375691836
2025-06-23 16:00:00,1.5861610745031405
2025-07-11 16:00:00,1.6277449158545267
2025-07-14 16:00:00,1.6552114518214467
2025-07-14 20:00:00,1.6470965123684207
2025-07-18 20:00:00,1.6552311270801487
2025-07-22 08:00:00,1.775030873017347
2025-07-23 12:00:00,1.785528823341175
2025-07-23 12:00:00,1.777144480924325
2025-07-23 16:00:00,1.7727120626355115
2025-07-28 20:00:00,1.7682950547073075
2025-08-11 20:00:00,1.7593681981596727
2025-08-14 12:00:00,1.8102566914625076
2025-08-14 12:00:00,1.8412358228593064
2025-08-14 12:00:00,1.8451449670012303
2025-08-18 00:00:00,1.8405508497347034
2025-08-23 08:00:00,1.8359581299591465
2025-08-24 16:00:00,1.82680438482311
2025-09-09 12:00:00,1.8183727790342512
2025-09-13 16:00:00,1.8772559487025433
2025-09-15 04:00:00,1.8912619940183373
2025-09-15 08:00:00,1.9236242028236905
2025-09-22 00:00:00,1.9620422676381561
2025-10-03 16:00:00,1.984047470424665
2025-10-05 16:00:00,2.003268710299559
2025-10-07 08:00:00,1.9932828360996369
2025-10-07 12:00:00,2.008971738623443
2025-10-09 00:00:00,2.019019300304302
2025-10-11 00:00:00,2.0680554368272306
2025-10-31 00:00:00,2.0578079030598837
2025-11-01 20:00:00,2.0475726428545404
2025-11-05 16:00:00,2.067504548323561
2025-11-05 20:00:00,2.0889505246019344
2025-11-07 04:00:00,2.1022282643649315
2025-11-18 12:00:00,2.096999001171844
2025-11-18 12:00:00,2.086551175956315
2025-11-20 00:00:00,2.076190220132614
2025-11-23 00:00:00,2.080102229733562
2025-11-23 12:00:00,2.084792243610142
2025-11-24 16:00:00,2.111693873629153
2025-11-24 20:00:00,2.106575200180015
2025-12-16 12:00:00,2.0960057831366714
2025-12-17 12:00:00,2.085577179209271
2025-12-18 12:00:00,2.07519226907071
2025-12-18 12:00:00,2.0648289980579126
2025-12-18 12:00:00,2.054496375986215
2026-01-21 04:00:00,2.0443837649928773
2026-01-21 20:00:00,2.034198501322116
2026-01-26 00:00:00,2.024233717060937
2026-01-26 00:00:00,2.0141259786667547
2026-01-26 04:00:00,2.0291248243103905
2026-01-30 16:00:00,2.019016447512789
2026-01-30 16:00:00,2.0089138889525553
2026-02-01 00:00:00,2.014884260355594
2026-02-02 12:00:00,2.0238056149263595
2026-02-06 08:00:00,2.030190611711166
2026-02-06 08:00:00,2.030089930794428
2026-02-06 12:00:00,2.1205954716633477
2026-02-06 12:00:00,2.125245643657471
2026-02-23 08:00:00,2.1147035108867986
2026-02-25 00:00:00,2.1041265515888155
2026-02-25 00:00:00,2.0936157075921913
2026-02-25 00:00:00,2.0831622738401387
2026-02-28 16:00:00,2.0779763766893073
2026-03-23 08:00:00,2.067785261040188
2026-03-23 08:00:00,2.0574133046541174
2026-03-23 12:00:00,2.046827054065924
2026-03-30 04:00:00,2.0367016940351745
2026-04-01 16:00:00,2.0259021406629185
2026-04-06 00:00:00,2.015899984847063
2026-04-07 20:00:00,2.0053397591851825
2026-04-18 08:00:00,1.9955158330141127
2026-05-04 08:00:00,1.9857384753030203
2026-05-04 08:00:00,1.9758402869225646
2026-05-06 12:00:00,1.9660500124713167
2026-05-06 12:00:00,1.9563562787881998
2026-05-08 00:00:00,1.9469072480525023
2026-05-12 00:00:00,1.942088646838062
2026-05-12 00:00:00,1.9373127600945164
2026-05-12 08:00:00,1.95750618082869
2026-05-13 12:00:00,1.9478267477760427
2026-05-23 20:00:00,1.9430552259982528
2026-05-23 20:00:00,1.9382225348349424
2026-05-23 20:00:00,1.9333972500819903
2026-05-28 12:00:00,1.9286003882528564
2026-05-31 16:00:00,1.9262193968972536
2026-06-03 04:00:00,1.923829144048545
2026-06-03 04:00:00,1.9214384362039256
2026-06-07 08:00:00,1.9262439014960047
2026-06-07 08:00:00,1.9264264824569388
2026-06-07 20:00:00,1.9581411223183114
2026-06-07 20:00:00,1.9849807863169184
2026-06-07 20:00:00,2.0096570239328657
2026-06-07 20:00:00,2.018140063670371
2026-06-12 12:00:00,2.0157751677242213
2026-06-25 04:00:00,2.0058081645486348
2026-06-27 12:00:00,2.000767757308805
2026-06-29 16:00:00,2.0060943337076185
2026-07-01 12:00:00,1.9962022844361735
2026-07-02 08:00:00,1.9865068070189429
2026-08-11 20:00:00,1.9767479681649858
2026-08-12 20:00:00,1.9669526774352208
2026-08-15 08:00:00,1.9781654496320151
2026-08-22 04:00:00,2.042394067682443
2026-08-22 04:00:00,2.0682257816061185
2026-08-22 04:00:00,2.1329151478544555
2026-08-25 12:00:00,2.1276249530820563
2026-09-01 16:00:00,2.122385230070351
2026-09-04 12:00:00,2.1118509093607467
2026-09-06 12:00:00,2.1178916991356447
2026-09-07 16:00:00,2.1126206106013825
2026-09-08 16:00:00,2.1021338889265
2026-09-20 00:00:00,2.091591271986564
2026-09-20 00:00:00,2.0810737981422966
2026-09-23 12:00:00,2.1016263104189976
2026-09-23 12:00:00,2.091168147342398
2026-09-23 12:00:00,2.080721364547612
2026-09-28 00:00:00,2.070445391390948
2026-09-30 04:00:00,2.0725709455795935
